# Wilkinson Microwave Anisotropy Probe (WMAP) year 1 data release.
# WMAP One-Year Combined TT Power Spectrum, version 1.1 (Feb 2003)
# Reference = WMAP Explanatory Supplement: http://lambda.gsfc.nasa.gov/
# Column 1 = multipole moment l
# Column 2 = TT power spectrum, units = uK^2, =  l(l+1)/2pi * C_l.
# Column 3 = 'Error' from diagonal terms of Fisher matrix, units = uK^2.
#             Included only as an estimate of their magnitude.  The
#             multipole moments are slightly coupled, so a correct
#             treatment of errors requires use of the entire Fisher matrix.
# Column 4 = portion of column3 error attributed to measurement errors,
#             units = uK^2.
# Column 5 = portion of column3 error attributed to cosmic variance, 
#             assuming the best-fit running index model described in
#             "First Year WMAP Results: Determination of Cosmological 
#              Parameters", Spergel et al. (2003). Units = uK^2
# 
# Revision History:
#  v1  : initial release
#  v1p1: revised column 3 based on best-fit model C_l instead of 
#        data C_l; added columns 4 and 5. 21 Feb 2003
# 
    2     123.3820     762.6369       3.3813     759.2556
    3     611.7750     608.1737       4.0262     604.1475
    4     756.6160     503.9580       4.3394     499.6186
    5    1256.7000     432.1765       4.5485     427.6281
    6     696.4790     380.1810       4.7410     375.4400
    7     829.8190     342.6010       4.9938     337.6072
    8     627.8620     314.4434       5.6118     308.8315
    9     815.1740     292.4860       5.6880     286.7980
   10     617.7500     275.5059       5.9813     269.5246
   11    1251.6700     262.5833       6.2671     256.3162
   12     758.7730     252.7137       6.6378     246.0759
   13     714.5950     244.6297       6.8215     237.8082
   14     907.1200     238.2403       7.1784     231.0619
   15     871.6480     232.8358       7.2772     225.5587
   16     628.6330     228.9148       7.8408     221.0741
   17    1042.0900     225.1925       7.7630     217.4295
   18     742.3790     222.6817       8.2045     214.4772
   19     947.1550     220.5788       8.4873     212.0915
   20     870.9060     218.9343       8.7701     210.1642
   21     706.1020     217.6281       9.0211     208.6070
   22     431.8440     216.4239       9.0598     207.3641
   23     660.0120     215.9546       9.5621     206.3925
   24     960.8510     215.6964      10.0423     205.6541
   25     849.1200     215.2456      10.1301     205.1155
   26     866.8620     215.2438      10.4968     204.7470
   27    1097.4200     215.3130      10.7912     204.5219
   28    1408.1899     215.5949      11.1789     204.4160
   29     899.1070     215.8083      11.4006     204.4077
   30    1007.8600     216.2199      11.7429     204.4770
   31    1078.1300     216.7738      12.1657     204.6081
   32    1607.0800     217.0790      12.2839     204.7951
   33    1188.0400     217.6776      12.6428     205.0348
   34    1067.9700     218.3189      12.9942     205.3246
   35     910.3670     218.9799      13.3177     205.6622
   36    1104.4200     219.5758      13.5302     206.0456
   37    1431.3400     220.0054      13.5325     206.4729
   38    1282.0601     221.1955      14.2527     206.9428
   39    1381.4301     221.6775      14.2236     207.4539
   40    1927.2400     222.9571      14.9520     208.0051
   41    1266.0400     223.6924      15.0971     208.5953
   42    1297.2500     224.5806      15.3572     209.2234
   43    1471.1600     225.6064      15.7184     209.8881
   44    1363.2100     226.6716      16.0832     210.5885
   45    1001.1000     227.6475      16.3239     211.3235
   46    1061.7300     228.8186      16.7261     212.0926
   47    1564.8000     229.9061      17.0114     212.8948
   48    1044.3000     231.0920      17.3625     213.7296
   49    1485.0300     231.8820      17.2857     214.5963
   50    1469.1801     233.4651      17.9705     215.4946
   51    1136.4600     234.9455      18.5215     216.4239
   52    1658.5500     235.6480      18.2644     217.3836
   53    1119.1100     237.0607      18.6878     218.3730
   54    1114.6300     238.8759      19.4844     219.3914
   55    1542.1700     240.0310      19.5926     220.4384
   56    1526.9700     241.4793      19.9658     221.5135
   57    1625.0699     242.6322      20.0161     222.6161
   58    1705.0100     244.1375      20.3916     223.7459
   59    1279.7500     246.0827      21.1802     224.9025
   60    1930.2000     247.8603      21.7749     226.0854
   61    1623.6300     249.2973      22.0029     227.2944
   62    1893.5300     250.7823      22.2533     228.5290
   63    1631.5900     252.4458      22.6574     229.7884
   64    1451.5400     254.1817      23.1096     231.0722
   65    1521.1200     255.4839      23.1041     232.3798
   66    1617.3400     257.3647      23.6539     233.7108
   67    1659.0200     259.1348      24.0701     235.0646
   68    1819.3500     261.0037      24.5627     236.4409
   69    2297.1899     262.7328      24.8936     237.8393
   70    1762.3101     264.1296      24.8703     239.2593
   71    1690.5000     266.5966      25.8960     240.7005
   72    1505.2300     267.9540      25.7919     242.1622
   73    2635.2600     270.1395      26.4961     243.6434
   74    2110.7400     272.0579      26.9144     245.1435
   75    1917.1400     273.7867      27.1250     246.6616
   76    1766.5400     276.5194      28.3224     248.1970
   77    1958.4900     277.4083      27.6592     249.7491
   78    1831.3700     279.4834      28.1665     251.3170
   79    1644.0000     281.8693      28.9691     252.9002
   80    2249.8000     283.9023      29.4044     254.4979
   81    2149.7200     286.1450      30.0353     256.1097
   82    2826.3799     288.1681      30.4324     257.7357
   83    2002.2300     290.1779      30.8021     259.3757
   84    1715.9200     291.9974      30.9674     261.0300
   85    2416.5000     293.9919      31.2934     262.6986
   86    2427.5400     296.2784      31.8967     264.3817
   87    2503.2700     298.1076      32.0284     266.0792
   88    1839.1700     300.2233      32.4319     267.7914
   89    2453.2300     302.6605      33.1421     269.5183
   90    2266.8501     304.9829      33.7229     271.2600
   91    2570.7200     306.8956      33.8790     273.0166
   92    2456.4700     309.1736      34.3860     274.7876
   93    2773.5901     311.5132      34.9407     276.5725
   94    2112.3000     313.4795      35.1085     278.3710
   95    2116.3201     315.7608      35.5783     280.1824
   96    2442.2100     317.9156      35.9090     282.0065
   97    2484.0100     320.6689      36.8261     283.8428
   98    1887.4800     322.8186      37.1278     285.6909
   99    2694.6399     325.1634      37.6131     287.5502
  100    3034.3999     327.5099      38.0893     289.4206
  101    2652.8899     299.1172       7.8157     291.3015
  102    2935.2100     301.1437       7.9510     293.1927
  103    2630.0400     303.1814       8.0878     295.0936
  104    2863.8401     305.2299       8.2259     297.0041
  105    2239.3799     307.2890       8.3654     298.9236
  106    2532.6299     309.3582       8.5063     300.8519
  107    3119.9900     311.4372       8.6485     302.7887
  108    3531.7800     313.5257       8.7922     304.7335
  109    2767.6899     315.6234       8.9373     306.6862
  110    3432.7600     317.7300       9.0837     308.6463
  111    2849.1699     319.8450       9.2317     310.6134
  112    2872.2300     321.9675       9.3810     312.5865
  113    2498.3201     324.0963       9.5318     314.5645
  114    2111.7400     326.2304       9.6840     316.5464
  115    3267.9399     328.3687       9.8377     318.5310
  116    3479.5500     330.5100       9.9928     320.5173
  117    4595.6299     332.6535      10.1493     322.5042
  118    3658.6399     334.7981      10.3074     324.4907
  119    3438.8201     336.9428      10.4669     326.4759
  120    3007.9800     339.0866      10.6279     328.4587
  121    4337.7402     341.2285      10.7904     330.4381
  122    2956.8799     343.3677      10.9543     332.4133
  123    3265.8601     345.5034      11.1201     334.3832
  124    2981.2300     347.6349      11.2879     336.3470
  125    3084.3501     349.7609      11.4572     338.3037
  126    3598.5601     351.8805      11.6281     340.2524
  127    3479.0500     353.9928      11.8005     342.1923
  128    3553.0000     356.0970      11.9746     344.1224
  129    3274.7100     358.1922      12.1502     346.0420
  130    3858.1399     360.2775      12.3275     347.9501
  131    3090.7700     362.3522      12.5063     349.8459
  132    3187.2500     364.4157      12.6867     351.7290
  133    3395.0901     366.4674      12.8688     353.5986
  134    3675.7600     368.5068      13.0525     355.4543
  135    3978.9800     370.5333      13.2378     357.2954
  136    4476.5698     372.5463      13.4248     359.1216
  137    3741.1499     374.5455      13.6134     360.9320
  138    3869.3799     376.5302      13.8038     362.7264
  139    4185.8599     378.5000      13.9958     364.5042
  140    4172.4102     380.4542      14.1894     366.2648
  141    4222.6001     382.3924      14.3847     368.0077
  142    4096.1699     384.3142      14.5817     369.7325
  143    4251.5298     386.2190      14.7805     371.4385
  144    3655.4900     388.1064      14.9810     373.1255
  145    5231.4399     389.9758      15.1831     374.7927
  146    4097.1001     391.8269      15.3870     376.4398
  147    3949.5901     393.6590      15.5926     378.0663
  148    3900.2500     395.4719      15.8001     379.6718
  149    3399.8000     397.2650      16.0093     381.2557
  150    4220.6802     399.0378      16.2202     382.8175
  151    4182.7300     400.7899      16.4331     384.3568
  152    4428.0698     402.5209      16.6476     385.8732
  153    4789.3198     404.2299      16.8639     387.3660
  154    4042.2700     405.9170      17.0822     388.8348
  155    4732.4902     407.5812      17.3022     390.2790
  156    4129.2202     409.2222      17.5240     391.6982
  157    4487.5200     410.8395      17.7478     393.0917
  158    5116.0200     412.4327      17.9735     394.4592
  159    4780.5698     414.0012      18.2011     395.8000
  160    4663.0400     415.5448      18.4309     397.1139
  161    4505.6899     417.0629      18.6627     398.4002
  162    4278.8301     418.5557      18.8973     399.6584
  163    4385.3301     420.0222      19.1341     400.8882
  164    4436.9399     421.4618      19.3729     402.0889
  165    4421.6201     422.8739      19.6137     403.2602
  166    4444.7598     424.2582      19.8565     404.4016
  167    4899.3999     425.6142      20.1015     405.5127
  168    4996.2100     426.9413      20.3484     406.5929
  169    4757.9600     428.2393      20.5975     407.6418
  170    4289.2900     429.5077      20.8486     408.6591
  171    4572.1001     430.7460      21.1020     409.6440
  172    4689.1499     431.9539      21.3574     410.5965
  173    4945.3999     433.1309      21.6150     411.5159
  174    4636.6899     434.2766      21.8748     412.4018
  175    5132.3501     435.3905      22.1367     413.2538
  176    5291.8301     436.4723      22.4009     414.0714
  177    4906.1299     437.5216      22.6673     414.8543
  178    5036.7100     438.5381      22.9361     415.6020
  179    6034.5400     439.5211      23.2069     416.3141
  180    5097.6201     440.4704      23.4802     416.9902
  181    3655.3611     441.3857      23.7558     417.6299
  182    4459.3760     442.2665      24.0338     418.2327
  183    4202.4458     443.1124      24.3140     418.7983
  184    5565.5771     443.9230      24.5967     419.3263
  185    5292.7871     444.6981      24.8818     419.8163
  186    4965.5161     445.4371      25.1693     420.2678
  187    5221.6299     446.1398      25.4593     420.6805
  188    5948.0908     446.8058      25.7518     421.0540
  189    6163.9219     447.4347      26.0468     421.3879
  190    5495.4351     448.0262      26.3444     421.6818
  191    5468.0000     448.5798      26.6445     421.9353
  192    6175.0918     449.0953      26.9471     422.1481
  193    5738.8950     449.5723      27.2525     422.3198
  194    5214.8569     450.0104      27.5604     422.4500
  195    4661.0420     450.4094      27.8710     422.5383
  196    5356.1099     450.7687      28.1843     422.5844
  197    5740.6660     451.0882      28.5004     422.5879
  198    5702.0669     451.3676      28.8192     422.5484
  199    5105.9868     451.6064      29.1408     422.4655
  200    6152.4800     459.0997      29.9409     429.1588
  201    5074.6128     456.8416      27.8561     428.9855
  202    5240.9780     456.9322      28.1642     428.7680
  203    5815.8320     456.9815      28.4751     428.5064
  204    5448.9810     457.0176      28.7904     428.2273
  205    5391.9409     456.9856      29.1067     427.8789
  206    4888.0298     456.9135      29.4258     427.4877
  207    4442.5239     456.8294      29.7495     427.0799
  208    4605.2349     456.6784      30.0743     426.6040
  209    4306.1968     456.5163      30.4039     426.1123
  210    5648.5791     456.2878      30.7344     425.5533
  211    5285.3618     456.0489      31.0698     424.9791
  212    5689.2061     455.7445      31.4063     424.3382
  213    5726.2051     455.4306      31.7478     423.6828
  214    5140.9419     455.0796      32.0924     422.9872
  215    6542.2061     454.6643      32.4381     422.2262
  216    5581.5459     454.2404      32.7889     421.4515
  217    4907.5288     453.7805      33.1429     420.6376
  218    6008.8159     453.2574      33.4980     419.7594
  219    5487.0908     452.7265      33.8584     418.8682
  220    6064.0288     452.1609      34.2221     417.9388
  221    6387.7358     451.5607      34.5892     416.9716
  222    5969.8052     450.9262      34.9596     415.9667
  223    5724.6572     450.2579      35.3334     414.9245
  224    5238.1372     449.5566      35.7113     413.8453
  225    5334.3311     448.8226      36.0932     412.7294
  226    5632.4858     448.0555      36.4785     411.5770
  227    5791.2051     447.2560      36.8674     410.3886
  228    5262.7842     446.4241      37.2599     409.1642
  229    4980.0269     445.5602      37.6559     407.9042
  230    5383.9858     444.6646      38.0557     406.6089
  231    5718.6958     443.7377      38.4591     405.2786
  232    5988.0640     442.7798      38.8664     403.9135
  233    5956.9209     441.8180      39.2797     402.5384
  234    4419.0908     440.7989      39.6945     401.1044
  235    6361.1450     439.7495      40.1132     399.6364
  236    6613.8882     438.6703      40.5357     398.1346
  237    5088.7568     437.5883      40.9647     396.6236
  238    5748.0630     436.4502      41.3952     395.0550
  239    5443.6909     435.2832      41.8298     393.4535
  240    6037.1948     434.1139      42.2709     391.8430
  241    5428.4111     432.8897      42.7136     390.1761
  242    5102.0361     431.6375      43.1606     388.4769
  243    5122.0449     430.3836      43.6143     386.7693
  244    5174.9570     429.0758      44.0697     385.0061
  245    6054.9761     427.7668      44.5320     383.2348
  246    5410.7622     426.4048      44.9961     381.4087
  247    5513.8818     425.0419      45.4674     379.5745
  248    5746.8042     423.6264      45.9402     377.6863
  249    4472.8931     422.2107      46.4204     375.7903
  250    5341.5430     420.7432      46.9024     373.8408
  251    4775.1792     419.2757      47.3918     371.8839
  252    6041.2021     417.7578      47.8830     369.8748
  253    4771.8838     416.2413      48.3818     367.8595
  254    4761.6421     414.7018      48.8855     365.8163
  255    5548.3301     413.1145      49.3908     363.7237
  256    5001.9121     411.5315      49.9044     361.6271
  257    4991.7690     409.9032      50.4203     359.4830
  258    5665.6899     408.2802      50.9441     357.3361
  259    5049.3291     406.6385      51.4732     355.1653
  260    5485.4722     404.9545      52.0048     352.9497
  261    4891.0869     403.2783      52.5449     350.7334
  262    5812.1602     401.5854      53.0900     348.4954
  263    5334.0020     399.8770      53.6405     346.2365
  264    4666.9150     398.1294      54.1929     343.9364
  265    4563.2319     396.3923      54.7541     341.6382
  266    5203.7080     394.6420      55.3207     339.3213
  267    4857.5439     392.8796      55.8931     336.9865
  268    5436.7041     391.0825      56.4685     334.6140
  269    4681.3442     389.2988      57.0530     332.2458
  270    4083.0649     387.5050      57.6432     329.8618
  271    5119.7788     385.7019      58.2390     327.4629
  272    5668.4092     383.8904      58.8407     325.0497
  273    4573.1709     382.0478      59.4447     322.6031
  274    4795.4590     380.2217      60.0581     320.1636
  275    4187.4028     378.3894      60.6774     317.7120
  276    4288.6851     376.5518      61.3029     315.2489
  277    5368.5112     374.7095      61.9345     312.7750
  278    4723.2388     372.8633      62.5722     310.2910
  279    5069.4639     370.9911      63.2124     307.7787
  280    4393.5210     369.1395      63.8627     305.2768
  281    4297.6050     367.2861      64.5192     302.7668
  282    5330.3799     365.4318      65.1824     300.2495
  283    5177.6611     363.5773      65.8519     297.7254
  284    4529.8979     361.7233      66.5281     295.1952
  285    4131.8740     359.8705      67.2109     292.6596
  286    5141.5781     357.9977      67.8962     290.1015
  287    3848.0061     356.1498      68.5926     287.5572
  288    4118.6479     354.3052      69.2958     285.0095
  289    4782.7090     352.4648      70.0059     282.4589
  290    4564.9609     350.6291      70.7230     279.9061
  291    3550.0920     348.7989      71.4471     277.3518
  292    4448.3062     346.9751      72.1785     274.7966
  293    4613.5308     345.1582      72.9172     272.2410
  294    3849.0349     343.3276      73.6585     269.6691
  295    4017.4641     341.5268      74.4119     267.1149
  296    3941.2129     339.7348      75.1725     264.5623
  297    4284.6719     337.9526      75.9408     262.0118
  298    3918.2300     336.1808      76.7167     259.4641
  299    4167.6909     334.4200      77.5003     256.9196
  300    4435.9541     332.6710      78.2917     254.3792
  301    2982.4700     330.9138      79.0861     251.8277
  302    4162.6792     329.1904      79.8933     249.2971
  303    3259.0049     327.4805      80.7084     246.7720
  304    4049.6130     325.7849      81.5317     244.2532
  305    3771.2229     324.1042      82.3632     241.7410
  306    3326.9851     322.4190      83.1977     239.2213
  307    3602.1389     320.7701      84.0458     236.7244
  308    3735.2629     319.1380      84.9023     234.2357
  309    3374.0701     317.5233      85.7674     231.7559
  310    4242.6108     315.9263      86.6409     229.2854
  311    3298.3911     314.3285      87.5178     226.8107
  312    3248.4189     312.7694      88.4087     224.3607
  313    3761.9880     311.2302      89.3087     221.9215
  314    2944.8870     309.7113      90.2175     219.4938
  315    4140.9878     308.1942      91.1297     217.0645
  316    3903.4199     306.7179      92.0567     214.6612
  317    2852.8960     305.2637      92.9927     212.2709
  318    2986.7810     303.8136      93.9326     209.8810
  319    3679.7161     302.4054      94.8872     207.5182
  320    3484.5090     301.0212      95.8513     205.1699
  321    2552.9009     299.6428      96.8190     202.8239
  322    3556.8081     298.3084      97.8025     200.5060
  323    3042.8201     296.9995      98.7956     198.2040
  324    3470.5271     295.6987      99.7924     195.9062
  325    3792.7971     294.4427     100.8051     193.6377
  326    3158.4231     293.1961     101.8215     191.3746
  327    2648.8240     291.9956     102.8543     189.1413
  328    3024.1509     290.8056     103.8908     186.9148
  329    2741.8630     289.6626     104.9438     184.7188
  330    2744.6799     288.5321     106.0015     182.5307
  331    2982.1550     287.4500     107.0763     180.3738
  332    2795.1570     286.3808     108.1548     178.2260
  333    2461.6270     285.3605     109.2505     176.1101
  334    3159.1570     284.3546     110.3501     174.0045
  335    2297.7520     283.3984     111.4670     171.9314
  336    2761.8911     282.4578     112.5880     169.8698
  337    3127.6680     281.5506     113.7196     167.8310
  338    2565.4939     280.6949     114.8692     165.8257
  339    2644.9419     279.8562     116.0226     163.8336
  340    3318.8921     279.0527     117.1871     161.8656
  341    2180.1089     278.3024     118.3703     159.9321
  342    2791.7351     277.5706     119.5570     158.0135
  343    2054.2849     276.8755     120.7552     156.1204
  344    2648.9099     276.2174     121.9643     154.2531
  345    1810.7460     275.5972     123.1851     152.4121
  346    2168.6101     275.0325     124.4252     150.6073
  347    2063.5420     274.4893     125.6691     148.8201
  348    1500.0291     273.9850     126.9244     147.0606
  349    2316.3279     273.5204     128.1913     145.3291
  350    2152.0740     273.0965     129.4704     143.6261
  351    2439.2820     272.7128     130.7609     141.9518
  352    2554.9060     272.3699     132.0635     140.3064
  353    2219.2200     272.0677     133.3780     138.6897
  354    2886.4980     271.8060     134.7044     137.1016
  355    2479.3101     271.5853     136.0433     135.5420
  356    2319.9810     271.4050     137.3942     134.0108
  357    2287.5020     271.2652     138.7572     132.5080
  358    2354.9341     271.1493     140.1241     131.0253
  359    2115.0149     271.0912     141.5122     129.5789
  360    1980.5830     271.0733     142.9126     128.1607
  361    3008.0100     271.0960     144.3256     126.7704
  362    2506.2019     271.1424     145.7421     125.4003
  363    2058.7180     271.2461     147.1803     124.0658
  364    2186.5710     271.3908     148.6317     122.7591
  365    1726.1180     271.5591     150.0866     121.4724
  366    2300.5591     271.7844     151.5634     120.2210
  367    2164.5930     272.0336     153.0440     118.9896
  368    1631.8470     272.3404     154.5473     117.7931
  369    1727.1670     272.6706     156.0539     116.6167
  370    1614.4080     273.0584     157.5836     115.4748
  371    2058.5449     273.4697     159.1167     114.3530
  372    1566.2500     273.9218     160.6634     113.2583
  373    1714.9189     274.4310     162.2332     112.1979
  374    1735.2080     274.9640     163.8065     111.1574
  375    2358.2241     275.5376     165.3937     110.1439
  376    2161.2090     276.1685     167.0044     109.1641
  377    1505.6570     276.8232     168.6190     108.2042
  378    2331.6299     277.5186     170.2475     107.2711
  379    2039.6790     278.2546     171.8898     106.3647
  380    1712.7939     279.0308     173.5459     105.4848
  381    1599.7880     279.8475     175.2160     104.6315
  382    1714.3560     280.7049     176.9003     103.8046
  383    1453.0350     281.6031     178.5990     103.0041
  384    1544.8420     282.5421     180.3123     102.2298
  385    1589.2410     283.5218     182.0400     101.4818
  386    1344.1060     284.5239     183.7703     100.7536
  387    1993.6580     285.5848     185.5270     100.0578
  388    1561.6450     286.6864     187.2983      99.3880
  389    1666.1060     287.8286     189.0844      98.7442
  390    1777.5129     288.9937     190.8736      98.1201
  391    1811.0179     290.2177     192.6897      97.5279
  392    2388.8811     291.4643     194.5089      96.9554
  393    1423.7810     292.7699     196.3552      96.4147
  394    1823.0730     294.0977     198.2042      95.8935
  395    1899.4630     295.4852     200.0813      95.4039
  396    1266.8140     296.8949     201.9611      94.9338
  397     825.0203     298.3457     203.8566      94.4891
  398     874.7407     299.8558     205.7801      94.0757
  399    1766.4659     301.3894     207.7077      93.6817
  400    1448.1400     302.9627     209.6498      93.3129
  401    1516.8860     304.5775     211.6083      92.9692
  402    1865.5510     306.2324     213.5822      92.6502
  403    1262.1930     307.9286     215.5730      92.3555
  404    2127.5220     309.6645     217.5798      92.0847
  405    1805.7810     311.4404     219.6031      91.8372
  406    1771.8910     313.2555     221.6427      91.6128
  407    1760.5190     315.1102     223.6993      91.4109
  408    1680.4060     316.9836     225.7582      91.2254
  409    1343.1710     318.9153     227.8480      91.0673
  410    1323.7889     320.8853     229.9549      90.9304
  411    1835.4230     322.8735     232.0647      90.8088
  412    2102.0730     324.9182     234.2050      90.7132
  413    2141.4021     326.9811     236.3491      90.6320
  414    1582.7100     329.1012     238.5252      90.5760
  415    2441.4221     331.2375     240.7039      90.5336
  416    1995.7791     333.4307     242.9151      90.5156
  417    1924.9130     335.6395     245.1292      90.5103
  418    1160.1920     337.8839     247.3610      90.5229
  419    1719.7791     340.1639     249.6107      90.5531
  420    2133.7610     342.4789     251.8785      90.6005
  421    1878.4821     344.8289     254.1644      90.6646
  422    1963.1500     347.2139     256.4689      90.7450
  423    1605.9200     349.6334     258.7921      90.8414
  424    2282.4241     352.0874     261.1341      90.9533
  425    1600.3660     354.5749     263.4945      91.0804
  426    1805.1410     357.0968     265.8745      91.2222
  427    1901.6110     359.6284     268.2556      91.3728
  428     934.4476     362.2170     270.6741      91.5430
  429    2321.0750     364.8380     273.1112      91.7268
  430    2410.3679     367.4700     275.5519      91.9181
  431    1538.1240     370.1569     278.0289      92.1279
  432    1820.4351     372.8526     280.5080      92.3445
  433    1348.0560     375.5800     283.0068      92.5732
  434    2323.0071     378.3629     285.5436      92.8193
  435    1926.1940     381.1543     288.0834      93.0709
  436    1162.6560     383.9763     290.6428      93.3335
  437    2640.8450     386.8296     293.2229      93.6067
  438    1452.6639     389.7137     295.8237      93.8900
  439    1675.2040     392.6279     298.4447      94.1832
  440    1335.2550     395.5730     301.0872      94.4858
  441    1277.1980     398.5482     303.7506      94.7976
  442    2871.2329     401.5283     306.4161      95.1122
  443    2083.7200     404.5637     309.1226      95.4411
  444    1207.6390     407.6271     311.8492      95.7780
  445    2108.8430     410.6960     314.5794      96.1166
  446    2242.2549     413.8181     317.3496      96.4685
  447    1751.0909     416.9444     320.1230      96.8213
  448    1361.6670     420.0985     322.9178      97.1808
  449    1200.1760     423.3075     325.7550      97.5524
  450    1426.4840     426.5188     328.5948      97.9240
  451    1744.0620     423.2253     320.5962     102.6292
  452    2106.7471     426.4395     323.3858     103.0536
  453    2108.6831     429.6781     326.1948     103.4833
  454    2838.5281     432.9460     329.0282     103.9178
  455    2632.6599     436.2407     331.8839     104.3568
  456    1588.1570     439.5616     334.7617     104.7999
  457    1512.8040     442.9091     337.6625     105.2466
  458    1352.7490     446.2829     340.5862     105.6967
  459    1577.5210     449.6836     343.5338     106.1498
  460    1560.3240     453.1096     346.5040     106.6055
  461    1984.0900     456.5612     349.4977     107.0635
  462    3104.8391     460.0393     352.5160     107.5233
  463    2826.3569     463.5424     355.5578     107.9846
  464    2176.8479     467.0719     358.6248     108.4471
  465    1901.6440     470.6249     361.7145     108.9104
  466    1337.9871     474.2042     364.8300     109.3742
  467    2034.5630     477.8087     367.9707     109.8380
  468    1249.0710     481.4359     371.1343     110.3015
  469     932.2463     485.0890     374.3245     110.7645
  470    2312.3701     488.7664     377.5399     111.2264
  471    3055.0371     492.4680     380.7809     111.6871
  472    2153.2209     496.1924     384.0464     112.1460
  473    2392.1150     499.9428     387.3398     112.6030
  474    2054.9641     503.7150     390.6575     113.0575
  475    2242.0530     507.5125     394.0031     113.5094
  476    2273.2810     511.3328     397.3746     113.9582
  477    1417.6110     515.1759     400.7723     114.4036
  478    1962.6670     519.0434     404.1981     114.8453
  479    2615.9360     522.9329     407.6500     115.2829
  480    2351.0281     526.8459     411.1298     115.7162
  481    1875.3070     530.7830     414.6383     116.1446
  482    2202.9800     534.7399     418.1719     116.5680
  483    2869.6521     538.7213     421.7352     116.9860
  484    1994.6250     542.7249     425.3267     117.3982
  485    3398.7749     546.7521     428.9477     117.8044
  486    1682.7400     550.7997     432.5956     118.2042
  487    2546.2571     554.8690     436.2718     118.5972
  488     691.2237     558.9613     439.9781     118.9832
  489    1757.2939     563.0750     443.7132     119.3618
  490    2863.0300     567.2112     447.4786     119.7327
  491    3843.4060     571.3685     451.2730     120.0955
  492    1973.2010     575.5471     455.0970     120.4501
  493    1755.1840     579.7487     458.9528     120.7959
  494    2486.3411     583.9697     462.8369     121.1328
  495    1766.4449     588.2131     466.7527     121.4603
  496    2584.2500     592.4776     470.6993     121.7783
  497    1349.0380     596.7649     474.6786     122.0863
  498    2777.1411     601.0703     478.6862     122.3840
  499    1711.4091     605.3994     482.7281     122.6712
  500    2770.2361     609.7482     486.8006     122.9475
  501    1602.9650     614.1169     490.9041     123.2127
  502    2950.7280     618.5056     495.0389     123.4668
  503    1870.4230     622.9188     499.2093     123.7096
  504    2957.3701     627.3532     503.4119     123.9413
  505    2524.6221     631.8084     507.6465     124.1619
  506    1723.1940     636.2831     511.9118     124.3713
  507    2207.9021     640.7841     516.2145     124.5696
  508    2804.7981     645.3065     520.5497     124.7569
  509    1780.3140     649.8483     524.9153     124.9330
  510    2488.4341     654.4185     529.3205     125.0980
  511    2433.6240     659.0081     533.7560     125.2520
  512    2808.1130     663.6223     538.2274     125.3949
  513    1853.1190     668.2613     542.7345     125.5267
  514    1217.9370     672.9243     547.2767     125.6476
  515    2448.9619     677.6094     551.8521     125.7573
  516    1387.0870     682.3204     556.4644     125.8561
  517    1065.2889     687.0548     561.1110     125.9439
  518    2313.2661     691.8156     565.7949     126.0206
  519    2261.7471     696.6014     570.5151     126.0864
  520    2704.7100     701.4136     575.2724     126.1412
  521    3779.3770     706.2487     580.0637     126.1850
  522    2364.9590     711.1123     584.8945     126.2178
  523    1648.0680     716.0023     589.7626     126.2397
  524    2722.2480     720.9167     594.6660     126.2507
  525    2033.5450     725.8603     599.6096     126.2507
  526    3248.9021     730.8292     604.5894     126.2398
  527    1358.1880     735.8254     609.6074     126.2180
  528    1414.6550     740.8492     614.6640     126.1853
  529    2783.4509     745.9035     619.7619     126.1416
  530    3036.6350     750.9825     624.8954     126.0871
  531    3558.9880     756.0934     630.0716     126.0218
  532    3248.3159     761.2303     635.2848     125.9455
  533    2003.5500     766.3984     640.5399     125.8584
  534    3191.3440     771.5912     645.8308     125.7604
  535    3179.0930     776.8165     651.1649     125.6516
  536    2663.3259     782.0742     656.5422     125.5320
  537    2312.9341     787.3585     661.9570     125.4015
  538    2795.6240     792.6733     667.4131     125.2602
  539    3452.6340     798.0207     672.9126     125.1081
  540    2672.3970     803.3975     678.4523     124.9452
  541    2880.9680     808.8055     684.0341     124.7715
  542    2434.8401     814.2468     689.6598     124.5870
  543    1738.8409     819.7172     695.3255     124.3917
  544    3036.1331     825.2195     701.0339     124.1856
  545    3722.6331     830.7563     706.7875     123.9688
  546    3224.9580     836.3264     712.5851     123.7412
  547    2456.0029     841.9277     718.4247     123.5029
  548    3428.1970     847.5631     724.3093     123.2539
  549    2696.3091     853.2320     730.2379     122.9941
  550    1899.7030     858.9338     736.2102     122.7235
  551    3701.2070     864.6703     742.2280     122.4423
  552    1608.4410     870.4418     748.2912     122.1506
  553    2400.6389     876.2474     754.3986     121.8487
  554    3063.1780     882.0915     760.5547     121.5368
  555    3863.6489     887.9700     766.7548     121.2151
  556    1522.4840     893.8873     773.0034     120.8839
  557    4987.7212     899.8401     779.2968     120.5433
  558    2277.1531     905.8292     785.6353     120.1938
  559    1209.2750     911.8604     792.0248     119.8354
  560    3229.7500     917.9250     798.4565     119.4684
  561    4036.7061     924.0368     804.9437     119.0931
  562     444.5700     930.1815     811.4718     118.7097
  563    2383.4241     936.3698     818.0514     118.3184
  564    2765.2410     942.6012     824.6818     117.9194
  565    1519.2570     948.8702     831.3572     117.5130
  566    3228.8091     955.1823     838.0828     117.0994
  567     608.2505     961.5386     844.8598     116.6789
  568     177.3318     967.9363     851.6849     116.2515
  569    2050.6270     974.3822     858.5645     115.8177
  570    2166.8030     980.8680     865.4905     115.3776
  571    1311.9659     987.4000     872.4686     114.9314
  572     434.7462     993.9772     879.4978     114.4794
  573    3556.0491    1000.5992     886.5775     114.0217
  574    -772.2820    1007.2698     893.7113     113.5587
  575    3944.6951    1013.9893     900.8989     113.0904
  576    2023.6250    1020.7547     908.1375     112.6172
  577    4177.3770    1027.5676     915.4282     112.1393
  578    2011.0760    1034.4304     922.7736     111.6569
  579    2142.7910    1041.3391     930.1689     111.1702
  580    1917.5160    1048.2998     937.6204     110.6793
  581    2497.9409    1055.3118     945.1271     110.1847
  582    4248.4258    1062.3756     952.6892     109.6863
  583    4010.4209    1069.4878     960.3033     109.1846
  584    3581.6841    1076.6552     967.9755     108.6796
  585    1036.6460    1083.8700     975.6985     108.1716
  586    1189.0200    1091.1438     983.4830     107.6608
  587    3510.4089    1098.4681     991.3206     107.1475
  588    1949.7510    1105.8492     999.2176     106.6317
  589    1927.9220    1113.2844    1007.1705     106.1139
  590    3757.5000    1120.7773    1015.1832     105.5940
  591    1239.8030    1128.3228    1023.2502     105.0725
  592    1609.0450    1135.9246    1031.3751     104.5494
  593    1041.8870    1143.5886    1039.5637     104.0250
  594    1562.4330    1151.3029    1047.8033     103.4994
  595    2101.1289    1159.0806    1056.1077     102.9730
  596     446.9620    1166.9148    1064.4690     102.4459
  597    3140.7219    1174.8125    1072.8943     101.9182
  598    1866.0940    1182.7653    1081.3749     101.3903
  599    2580.7229    1190.7838    1089.9215     100.8623
  600    1872.8070    1198.8591    1098.5247     100.3344
  601       7.8509    1206.9990    1107.1921      99.8068
  602    2493.1150    1215.2028    1115.9230      99.2798
  603    -905.1535    1223.4659    1124.7124      98.7535
  604    3514.7781    1231.7975    1133.5695      98.2280
  605    2266.7981    1240.1942    1142.4905      97.7037
  606    1642.6110    1248.6462    1151.4655      97.1808
  607    3389.5310    1257.1735    1160.5142      96.6593
  608    3135.9780    1265.7621    1169.6226      96.1395
  609    2359.5310    1274.4182    1178.7966      95.6217
  610    2517.1121    1283.1423    1188.0364      95.1059
  611    1511.4390    1291.9387    1197.3463      94.5925
  612    2173.7900    1300.7996    1206.7180      94.0815
  613      77.6369    1309.7294    1216.1561      93.5733
  614    3061.2090    1318.7302    1225.6622      93.0679
  615    2882.3650    1327.8044    1235.2389      92.5655
  616    1378.3080    1336.9469    1244.8804      92.0665
  617    4002.8479    1346.1610    1254.5901      91.5709
  618    2059.5659    1355.4463    1264.3674      91.0789
  619    1805.6810    1364.8070    1274.2162      90.5908
  620    -183.5365    1374.2468    1284.1401      90.1067
  621    -644.3215    1383.7506    1294.1238      89.6268
  622    3624.0859    1393.3405    1304.1892      89.1514
  623     176.8948    1402.9966    1314.3162      88.6805
  624      23.6813    1412.7386    1324.5243      88.2144
  625    2287.3879    1422.5548    1334.8016      87.7532
  626    1413.8270    1432.4481    1345.1509      87.2972
  627    6002.9219    1442.4183    1355.5718      86.8466
  628    1555.9630    1452.4650    1366.0634      86.4015
  629     416.8448    1462.5986    1376.6365      85.9620
  630     963.5390    1472.8058    1387.2772      85.5285
  631    2093.1060    1483.0985    1397.9974      85.1010
  632    2419.4861    1493.4772    1408.7974      84.6798
  633    4012.3931    1503.9303    1419.6653      84.2651
  634    3963.0920    1514.4724    1430.6156      83.8569
  635    2684.7090    1525.0953    1441.6398      83.4556
  636    2126.1750    1535.8073    1452.7461      83.0612
  637     406.4875    1546.6058    1463.9320      82.6740
  638    2030.6440    1557.4872    1475.1931      82.2941
  639      55.6879    1568.4531    1486.5315      81.9218
  640    1396.4670    1579.5084    1497.9513      81.5571
  641    2361.6980    1590.6530    1509.4528      81.2003
  642    1164.3490    1601.8818    1521.0302      80.8516
  643     327.1929    1613.2128    1532.7017      80.5111
  644     640.1141    1624.6271    1544.4480      80.1790
  645   -1416.4240    1636.1283    1556.2727      79.8555
  646    5969.7930    1647.7284    1568.1876      79.5408
  647     701.9258    1659.4185    1580.1836      79.2349
  648    4361.0298    1671.1985    1592.2604      78.9382
  649    -849.1665    1683.0781    1604.4272      78.6508
  650     882.0359    1695.0472    1616.6746      78.3728
  651    4734.0630    1707.1216    1629.0172      78.1044
  652    3293.3269    1719.2852    1641.4396      77.8456
  653    3575.1321    1731.5474    1653.9510      77.5963
  654     848.2543    1743.9133    1666.5568      77.3565
  655    1377.0100    1756.3710    1679.2450      77.1261
  656    1957.2889    1768.9252    1692.0201      76.9050
  657    3733.2339    1781.5787    1704.8854      76.6933
  658    3130.6230    1794.3352    1717.8444      76.4909
  659   -2799.1670    1807.1924    1730.8948      76.2976
  660    2147.5291    1820.1465    1744.0331      76.1135
  661    5583.2808    1833.2073    1757.2687      75.9385
  662    1925.8260    1846.3665    1770.5939      75.7726
  663   -2415.5681    1859.6302    1784.0145      75.6157
  664    1137.2230    1872.9933    1797.5255      75.4678
  665    1572.3220    1886.4678    1811.1389      75.3288
  666   -1045.0439    1900.0469    1824.8483      75.1986
  667    7765.1519    1913.7266    1838.6493      75.0773
  668    7214.0889    1927.5170    1852.5522      74.9647
  669     596.4047    1941.4053    1866.5444      74.8608
  670    -581.3713    1955.4039    1880.6384      74.7656
  671    3955.2739    1969.5103    1894.8313      74.6791
  672    2640.3960    1983.7272    1909.1261      74.6011
  673    3951.0911    1998.0526    1923.5210      74.5316
  674    -926.4888    2012.4813    1938.0107      74.4706
  675    4009.6919    2027.0319    1952.6138      74.4180
  676    6149.2319    2041.6825    1967.3086      74.3738
  677     966.2288    2056.4504    1982.1125      74.3379
  678    4203.1621    2071.3364    1997.0261      74.3103
  679    3701.3931    2086.3240    2012.0333      74.2909
  680   -1315.1121    2101.4326    2027.1528      74.2797
  681    5307.6851    2116.6538    2042.3772      74.2767
  682   -4338.0859    2131.9902    2057.7085      74.2818
  683    3123.8350    2147.4341    2073.1394      74.2949
  684    4638.0229    2163.0076    2088.6917      74.3160
  685    1455.0880    2178.6917    2104.3467      74.3450
  686    1813.9270    2194.5002    2120.1182      74.3820
  687    1817.8020    2210.4233    2135.9963      74.4268
  688   -4805.8330    2226.4568    2151.9773      74.4795
  689   -2097.1321    2242.6250    2168.0852      74.5399
  690    5239.7539    2258.8994    2184.2913      74.6081
  691   -1643.4670    2275.3049    2200.6211      74.6839
  692    -905.7075    2291.8323    2217.0649      74.7673
  693     348.3626    2308.4731    2233.6147      74.8584
  694    2570.3660    2325.2405    2250.2832      74.9570
  695    -223.6349    2342.1411    2267.0779      75.0631
  696    5039.5508    2359.1650    2283.9883      75.1767
  697    2213.0081    2376.2993    2301.0020      75.2976
  698   -3934.6909    2393.5776    2318.1519      75.4260
  699    2561.9360    2410.9814    2335.4194      75.5616
  700    6024.8579    2428.5083    2352.8035      75.7046
  701    4917.7881    2446.1597    2370.3049      75.8547
  702    1626.1160    2463.9502    2387.9382      76.0119
  703    2613.0020    2481.8638    2405.6877      76.1759
  704   -1597.4060    2499.9204    2423.5735      76.3467
  705    3057.1140    2518.0864    2441.5627      76.5239
  706     142.7675    2536.4004    2459.6929      76.7075
  707     -75.1234    2554.8481    2477.9512      76.8971
  708    4884.0288    2573.4238    2496.3311      77.0928
  709     974.4821    2592.1306    2514.8364      77.2941
  710   -3186.9199    2610.9829    2533.4819      77.5011
  711    -373.4638    2629.9529    2552.2393      77.7135
  712    1692.2360    2649.0740    2571.1428      77.9310
  713    5332.4790    2668.3337    2590.1802      78.1537
  714   -2329.1970    2687.7244    2609.3430      78.3811
  715   -1644.3650    2707.2522    2628.6389      78.6133
  716   -1228.3571    2726.9180    2648.0679      78.8500
  717      44.5899    2746.7314    2667.6404      79.0910
  718    -462.8018    2766.6826    2687.3464      79.3361
  719     512.6001    2786.7632    2707.1780      79.5852
  720    -280.7488    2807.0000    2727.1619      79.8381
  721   -2736.0730    2827.3608    2747.2664      80.0946
  722    4739.5649    2847.8804    2767.5259      80.3545
  723     983.9019    2868.5459    2787.9280      80.6178
  724    4174.4702    2889.3523    2808.4685      80.8841
  725     293.5886    2910.2981    2829.1448      81.1533
  726    5240.9551    2931.3994    2849.9741      81.4253
  727     298.7967    2952.6475    2870.9478      81.6998
  728    1637.7750    2974.0386    2892.0620      81.9768
  729     910.9006    2995.5757    2913.3196      82.2559
  730    1319.6331    3017.2634    2934.7263      82.5372
  731    2305.6721    3039.1001    2956.2800      82.8203
  732   -3872.8379    3061.0935    2977.9883      83.1051
  733    1380.5590    3083.2341    2999.8425      83.3915
  734   -2433.4331    3105.5381    3021.8589      83.6792
  735    3573.4919    3127.9714    3044.0032      83.9681
  736    4942.1089    3150.5903    3066.3323      84.2581
  737     192.6706    3173.3425    3088.7935      84.5490
  738    3114.1460    3196.2563    3111.4158      84.8405
  739    5029.1538    3219.3333    3134.2009      85.1326
  740    8531.1748    3242.5486    3157.1238      85.4250
  741   -1595.3790    3265.9365    3180.2185      85.7177
  742    6205.6729    3289.4648    3203.4543      86.0103
  743    6274.0889    3313.1721    3226.8691      86.3029
  744    3988.8049    3337.0398    3250.4448      86.5951
  745     465.6910    3361.0549    3274.1682      86.8869
  746   -4441.9028    3385.2556    3298.0774      87.1780
  747    7197.3110    3409.6040    3322.1355      87.4684
  748    3141.7939    3434.1052    3346.3477      87.7578
  749    8172.9990    3458.7856    3370.7395      88.0460
  750   -3078.6221    3483.6477    3395.3145      88.3330
  751    3639.1660    3508.6335    3420.0151      88.6186
  752    3120.8479    3533.8098    3444.9072      88.9026
  753    2679.3159    3559.1616    3469.9768      89.1848
  754    8197.2344    3584.6772    3495.2119      89.4652
  755    -377.3017    3610.3667    3520.6233      89.7436
  756   -1600.1639    3636.2227    3546.2031      90.0198
  757    2628.5730    3662.2502    3571.9568      90.2937
  758    2338.4109    3688.4443    3597.8792      90.5652
  759    1535.1420    3714.8123    3623.9783      90.8342
  760    4072.4480    3741.3782    3650.2778      91.1004
  761     174.2986    3768.0955    3676.7317      91.3638
  762    2917.9890    3795.0007    3703.3765      91.6242
  763    3183.3960    3822.0842    3730.2026      91.8814
  764   -1957.9550    3849.3354    3757.2000      92.1354
  765     223.2232    3876.7625    3784.3767      92.3860
  766     272.7387    3904.3774    3811.7441      92.6331
  767   -4436.5581    3932.1689    3839.2925      92.8765
  768   10138.0801    3960.1567    3867.0408      93.1161
  769    4448.0640    3988.3198    3894.9683      93.3518
  770    7119.9570    4016.6743    3923.0908      93.5833
  771   -1237.9180    4045.1975    3951.3867      93.8107
  772    6826.1841    4073.9067    3979.8730      94.0337
  773    2426.8301    4102.8159    4008.5635      94.2523
  774   -1139.8650    4131.9165    4037.4500      94.4662
  775   -4528.1030    4161.1919    4066.5161      94.6753
  776    -526.6643    4190.6694    4095.7896      94.8796
  777    3973.1860    4220.3306    4125.2520      95.0788
  778   -1764.6689    4250.1846    4154.9116      95.2729
  779    2305.2771    4280.2236    4184.7617      95.4618
  780   -4457.8301    4310.4775    4214.8325      95.6452
  781    3275.2429    4340.9131    4245.0903      95.8230
  782    2772.2090    4371.5586    4275.5635      95.9952
  783    2779.9939    4402.3765    4306.2148      96.1615
  784    1142.1100    4433.4189    4337.0972      96.3220
  785   -4118.4028    4464.6128    4368.1362      96.4763
  786    2469.2581    4496.0518    4399.4272      96.6245
  787   -1284.5610    4527.6895    4430.9229      96.7663
  788     180.9269    4559.5137    4462.6118      96.9016
  789   -2440.8569    4591.5649    4494.5347      97.0304
  790    5660.4448    4623.8013    4526.6489      97.1524
  791    2758.9409    4656.2642    4558.9966      97.2676
  792   10427.3203    4688.8989    4591.5229      97.3758
  793   -6023.4082    4721.7749    4624.2979      97.4769
  794   -3817.8020    4754.8340    4657.2632      97.5708
  795   11140.8398    4788.1011    4690.4443      97.6573
  796    2108.4771    4821.6089    4723.8726      97.7363
  797    2942.2129    4855.3101    4757.5024      97.8077
  798    8342.8037    4889.2173    4791.3462      97.8714
  799   -5842.7168    4923.3345    4825.4072      97.9271
  800    8416.0645    4957.7061    4859.7310      97.9749
  801    7627.3940    4992.2612    4894.2466      98.0146
  802    -559.8192    5027.0532    4929.0073      98.0462
  803   12719.2305    5062.0537    4963.9844      98.0698
  804     336.0424    5097.2700    4999.1851      98.0853
  805    1415.5850    5132.7100    5034.6172      98.0928
  806   -3900.2529    5168.3765    5070.2842      98.0923
  807   -8128.9609    5204.2793    5106.1948      98.0839
  808    6833.6162    5240.4038    5142.3359      98.0676
  809   -8199.5098    5276.7300    5178.6865      98.0433
  810    4956.4482    5313.3184    5215.3071      98.0112
  811   -3875.1140    5350.1284    5252.1572      97.9712
  812    -994.2132    5387.1680    5289.2446      97.9235
  813    2023.4150    5424.4082    5326.5396      97.8679
  814   -9174.2021    5461.9326    5364.1279      97.8046
  815    4792.6860    5499.6489    5401.9150      97.7336
  816    6656.9380    5537.6455    5439.9907      97.6549
  817    -156.3022    5575.8447    5478.2764      97.5685
  818   11426.6797    5614.3086    5516.8340      97.4744
  819   -1110.5389    5652.9819    5555.6089      97.3728
  820    -498.7589    5691.9258    5594.6621      97.2635
  821    5784.6421    5731.0918    5633.9448      97.1467
  822   -2338.5439    5770.5308    5673.5083      97.0223
  823   -4762.3799    5810.1919    5713.3013      96.8905
  824   10288.1699    5850.1167    5753.3652      96.7511
  825     -85.8420    5890.2788    5793.6743      96.6043
  826   -5792.6299    5930.6919    5834.2417      96.4501
  827    9432.3066    5971.3535    5875.0654      96.2884
  828   -1237.6071    6012.2500    5916.1304      96.1194
  829   11577.6504    6053.4253    5957.4829      95.9430
  830   -5906.0708    6094.8521    5999.0923      95.7593
  831   -1436.6479    6136.5435    6040.9756      95.5683
  832    -747.6784    6178.5137    6083.1436      95.3700
  833    3779.9199    6220.7168    6125.5522      95.1645
  834    6686.0791    6263.1763    6168.2246      94.9517
  835  -10580.1699    6305.9209    6211.1890      94.7318
  836   10068.4297    6348.9004    6254.3960      94.5046
  837     284.3946    6392.1841    6297.9141      94.2704
  838    4784.3169    6435.7158    6341.6865      94.0290
  839   -2786.4980    6479.5171    6385.7363      93.7805
  840   10887.6396    6523.5620    6430.0366      93.5250
  841    4101.7319    6567.9038    6474.6411      93.2624
  842   -3374.4199    6612.5425    6519.5498      92.9928
  843    7427.2959    6657.4517    6564.7354      92.7162
  844   11351.7500    6702.5835    6610.1509      92.4326
  845   11252.5303    6748.0410    6655.8989      92.1421
  846   10319.7402    6793.7739    6701.9292      91.8447
  847    2104.9719    6839.7974    6748.2568      91.5404
  848    2987.6140    6886.0845    6794.8555      91.2292
  849   12221.2305    6932.6582    6841.7466      90.9112
  850    7164.0972    6979.5200    6888.9341      90.5864
  851   12210.5498    7026.6611    6936.4067      90.2547
  852   -6624.4468    7074.1104    6984.1938      89.9165
  853    5208.7090    7121.8530    7032.2817      89.5717
  854   18855.6504    7169.8755    7080.6543      89.2206
  855    -685.2932    7218.1978    7129.3345      88.8632
  856    6274.0898    7266.8042    7178.3042      88.4998
  857   10564.0801    7315.7168    7227.5869      88.1304
  858   -1976.4420    7364.9336    7277.1782      87.7552
  859    3578.9741    7414.4399    7327.0654      87.3744
  860    1354.5820    7464.2417    7377.2534      86.9880
  861    8314.6592    7514.3677    7427.7715      86.5963
  862     615.0848    7564.8110    7478.6123      86.1993
  863   -3321.0481    7615.5293    7529.7324      85.7972
  864   -2859.4780    7666.5757    7581.1851      85.3901
  865   -3234.6541    7717.9399    7632.9624      84.9782
  866   22348.9004    7769.6221    7685.0605      84.5617
  867   -1656.9370    7821.5952    7737.4551      84.1405
  868    6698.1982    7873.8672    7790.1528      83.7150
  869   -2467.7151    7926.5063    7843.2212      83.2852
  870    7539.5239    7979.4507    7896.5996      82.8512
  871  -12382.8203    8032.7334    7950.3198      82.4133
  872  -10100.3799    8086.3257    8004.3540      81.9715
  873    4637.5518    8140.2339    8058.7080      81.5259
  874   10933.2803    8194.4678    8113.3911      81.0768
  875   11104.5996    8249.0771    8168.4521      80.6241
  876    3406.8711    8303.9736    8223.8057      80.1682
  877   -3593.0330    8359.1904    8279.4814      79.7091
  878  -13859.4697    8414.8115    8335.5654      79.2469
  879  -11088.7197    8470.6895    8391.9072      78.7818
  880   26480.8809    8526.9521    8448.6387      78.3139
  881   -5331.9448    8583.5176    8505.6738      77.8433
  882   -3330.6521    8640.4697    8563.0986      77.3702
  883      62.2097    8697.7588    8620.8643      76.8947
  884    1993.1370    8755.3770    8678.9600      76.4170
  885   -5423.5371    8813.3584    8737.4199      75.9371
  886    3930.3301    8871.7051    8796.2500      75.4553
  887    6920.0278    8930.3604    8855.3887      74.9715
  888   -2487.7971    8989.4014    8914.9150      74.4861
  889   -5045.4678    9048.8027    8974.8037      73.9990
  890   18028.8809    9108.5889    9035.0781      73.5105
  891    2816.0530    9168.6846    9095.6641      73.0206
  892   10693.7100    9229.1367    9156.6074      72.5295
  893    4222.8682    9289.9873    9217.9512      72.0373
  894   11420.1201    9351.2021    9279.6582      71.5442
  895   13036.3496    9412.7939    9341.7441      71.0502
  896   16760.5996    9474.7412    9404.1855      70.5556
  897    9046.5000    9537.0732    9467.0117      70.0603
  898   12001.8301    9599.7354    9530.1709      69.5647
  899   15065.5898    9662.8350    9593.7666      69.0687
  900  -17046.0801    9726.3271    9657.7549      68.5726
